x	y	theta	steer
0.065	1.0	0.0	0
0.19314322005	1.0	0.0	-0.29351111111111106
0.3214588216891361	1.0	0.0	-0.29351111111111106
0.44993033013867156	0.9996877865595114	6.279357308559403	-0.29351111111111106
0.5785379304263829	0.998458676524727	6.265584913877871	-0.2917341328047768
0.7072487955576807	0.9956457094185527	6.23775063907108	-0.2853098490543335
0.8360006144442973	0.9904333158532672	6.193180609768903	-0.2722297085652114
0.964685608452885	0.9819777714760458	6.132228348275424	-0.2722297085652114
1.0931562601975684	0.9696863452321184	6.060670308693227	-0.22176006968547446
1.221192018961028	0.9528135103473725	5.982581067573058	-0.22176006968547446
1.3485672474337203	0.9310488078859831	5.906466957849673	-0.22176006968547446
1.4749543021354998	0.9037994496385746	5.8340661895546075	-0.22176006968547446
1.599954700534845	0.870519587484503	5.764717864514964	-0.22176006968547446
1.723137709630832	0.8308514954402687	5.697816303466498	-0.027243238609418068
1.8440553532882635	0.7845896311753736	5.632832737014814	-0.027243238609418068
1.9624481717925137	0.7320796863092834	5.575046686726868	-0.027243238609418068
2.0781892007264022	0.6738562057128943	5.529693482656698	-0.027243238609418068
2.191285884843596	0.6105636987052782	5.500222803972566	-0.027243238609418068
2.3016774864011644	0.5425924590972323	5.48308072866783	-0.027243238609418068
2.409391827562989	0.47039246116479894	5.473953830666109	0.19300246021597034
2.51457670122971	0.39450171649700466	5.46978944320547	0.2182122307915632
2.6177403378259405	0.3158375380204391	5.47421518210728	0.2182122307915632
2.7195342630983133	0.23536710969933533	5.491424802252823	0.2182122307915632
2.820687097409473	0.15405570988169448	5.524248414775707	0.2182122307915632
2.9219158524696027	0.0728065256723833	5.5725033970982025	0.28891755324862733
3.0237394103845845	-0.007724992535157925	5.630542659463723	0.2915200313655897
3.1268270047828004	-0.0866567420088787	5.696450096132409	0.2915200313655897
3.2320716462914394	-0.1627098217193838	5.774336137395979	0.28375467221599865
3.3399820999977576	-0.23495128677894317	5.861292049944386	0.28375467221599865
3.4508366999185016	-0.30261042810688543	5.951572531201787	0.254706351291557
3.5648262375902977	-0.36486086534934153	6.041602654819985	0.23481757449128665
3.6819165756142285	-0.42107949327319194	6.127013412001107	0.23481757449128665
3.8020564650273214	-0.4704649834646025	6.208667067127815	0.1923487896539634
3.9250127585880703	-0.5123698152745476	0.0041339598336813665	0.170894597189026
4.050376070831156	-0.5464379013562114	0.07839608979099563	0.14856618906491845
4.177605356440992	-0.5727217492104569	0.14402754952633334	0.14856618906491845
4.3062181892086935	-0.5911363371743747	0.20161778721112247	0.1046896678301333
4.435712985595601	-0.6017668206219907	0.2520434118193814	0.08473949202605295
4.565608173864745	-0.6050288134083908	0.2939898456971211	0.0656589353735482
4.695498812014157	-0.6013054832475179	0.328326297915606	0.0656589353735482
4.825044916526184	-0.5910762619516584	0.3560632087490612	0.03193871574287176
4.953971267154674	-0.5747622135374003	0.3796472009384385	0.01672468835824675
5.08213296538073	-0.5532186581969752	0.3960447874239038	0.01672468835824675
5.209450422027311	-0.5271246762857194	0.40520516546875746	0.01672468835824675
5.335872985935469	-0.4969752528176348	0.4098412147781132	-0.0236813780863387
5.461405174240327	-0.46329668314269074	0.4118371606270258	-0.034571666843747954
5.586136913803808	-0.42675071782121426	0.4104360025764494	-0.04533544967542169
5.710274828193958	-0.3882272105808024	0.4016961362748622	-0.05544521337915594
5.833923040446075	-0.34815209459048746	0.38832795338190984	-0.05544521337915594
5.957215958745741	-0.3069903208280748	0.3722211197712666	-0.06878134549002754
6.080298465730897	-0.26519800610756045	0.354660613678441	-0.07377148149802491
6.203363173284093	-0.22334867183344315	0.33446061726895066	-0.07830668474508032
6.326580705533526	-0.1819476763271837	0.3111011635526251	-0.07830668474508032
6.450065710479392	-0.14134816138531492	0.2859071000974359	-0.08356380763055926
6.573922842783531	-0.10189565215612875	0.2597736570777862	-0.08438811003451469
6.6982384358652425	-0.06390996041287524	0.23328580030434254	-0.08446217600771004
6.8230765825354185	-0.027676251814950037	0.2068085211470221	-0.08446217600771004
6.948478349694049	0.006558061865218758	0.18055415868243685	-0.08446217600771004
7.074463018938404	0.03858286808213376	0.1546318400380276	-0.08141684162071662
7.20103047237138	0.06822284869869925	0.12908319695309378	-0.08141684162071662
7.3281640792381095	0.09533392241359182	0.10390769812390846	-0.08141684162071662
7.4558336499110665	0.11979928043465597	0.07908023695448088	-0.07372866138821323
7.583998193418834	0.14152542161559908	0.0545630302035557	-0.07372866138821323
7.712608340452836	0.16043842966808208	0.030313405384071755	-0.07372866138821323
7.8416083801704906	0.17648062396769973	0.006288671085209091	-0.07372866138821323
7.970937913783004	0.1896076410791579	6.265634268240898	-0.07372866138821323
8.100533158965941	0.19978595566708218	6.2419440138619935	-0.07372866138821323
8.230327953760769	0.2069908193900016	6.218372518128703	-0.040482231094281645
8.360254512626446	0.21120457925884273	6.194893967138568	-0.040482231094281645
8.490243268032287	0.21257664794797207	6.173519797139239	-0.02311915675462531
8.620232607678133	0.2112392477734113	6.1552874401017545	-0.014111539581721158
8.750176197811511	0.20753271395136452	6.14289819629592	-0.0056918987121158905
8.880034333145055	0.20153049352696345	6.134434744856899	-0.0056918987121158905
9.00977627044645	0.1933887457480376	6.128517054237222	-0.0056918987121158905
9.139381822319445	0.18330148494519707	6.124170394869115	0.011333530521200758
9.268840293236119	0.17147183010954695	6.120721374628969	0.016207942878642228
9.39816520371945	0.15825506290243435	6.119749948042418	0.021198566657909496
9.527376280394018	0.1439665384588946	6.122016851284044	0.025505521431338503
9.656486582352104	0.12879288658761667	6.126332312611702	0.02870132018305357
9.785515585234075	0.11294156364914731	6.131865690385845	0.03125500182954829
9.914485853514945	0.09661832640607332	6.138051157419202	0.03347137944977037
10.043420356884205	0.08001426132536796	6.144515057596974	0.03553917599736256
10.17238029170574	0.06360833840833285	6.154743893306975	0.037566813803228044
10.301383391328581	0.04754495290348066	6.167416688390166	0.037878719065487
10.430450627239285	0.03200509021479222	6.181599954302298	0.03701409194459583
10.559601836548147	0.01717928195057647	6.1966483985939425	0.03533079510328578
10.688852926296343	0.0032511975907992185	6.212127825069876	0.03533079510328578
10.818214359645063	-0.009611495640975218	6.227756107796683	0.030329978172851112
10.947690614344028	-0.02126144234540888	6.243358635182047	0.030329978172851112
11.07725519473167	-0.031883447362829574	6.255111989077196	0.030329978172851112
11.206907776599067	-0.041371033996105464	6.264146020095061	0.021717892244729264
11.336640163723013	-0.04969702362137784	6.2713008881832195	0.021717892244729264
11.466440770144938	-0.05688243919096499	6.277191854702057	0.019818942158826132
11.596297314759568	-0.06297511775063594	6.282262037492904	0.019818942158826132
11.726198244778752	-0.06803541567278028	0.0036393298100026194	0.018890381650732115
11.856133349067425	-0.07212701325805684	0.007910905406638278	0.018890381650732115
11.986093902428976	-0.0753113149880879	0.012037218046998201	0.01768717184880216
12.1160725672129	-0.07764432611982287	0.01611301747396266	0.016805121875900813
12.246063190470528	-0.07917518550545871	0.02019698080707664	0.016805121875900813
12.37606057449572	-0.07994576441370509	0.02432282875034265	0.014346739253473252
12.506060260388312	-0.07999091514988647	0.02850747231661279	0.01275643940387618
12.636058341703198	-0.07933908290257718	0.032756885104811374	0.0109273325725104
12.766051312813346	-0.07801308917931564	0.03707025787916244	0.0088651377617937
12.896035950358852	-0.07603096346052998	0.041442874511462925	0.00657690961729855
13.026009223452007	-0.07340674780389399	0.04586805049613953	0.00657690961729855
13.155968227528511	-0.07015123223718378	0.050338395472062356	0.0013515224125403404
13.28591013691384	-0.06627260091489619	0.0548465972570322	0.0013515224125403404
13.415832171770385	-0.06177698327113386	0.05938587446811538	-0.004695383821608289
13.545731575817017	-0.056668913108969196	0.06395020559453896	-0.008013389998159242
13.675612738003828	-0.05111287033096604	0.0665016750898356	-0.011522188197683124
13.805480441084033	-0.04525054595298289	0.06598130330650696	-0.014276275456631628
13.935335582398814	-0.039116111556976564	0.0633936841960908	-0.015767830448033728
14.065181413922353	-0.03278758051291779	0.05946257225283463	-0.015767830448033728
14.19502254706075	-0.026363380015262082	0.054699716122563184	-0.016555869290189814
14.32486407733335	-0.019947326535897442	0.04945911770943397	-0.016555869290189814
14.454710900449331	-0.01363950243284141	0.04397918102990496	-0.015920438914959385
14.584567248856205	-0.007531180114313029	0.0384149932199974	-0.015920438914959385
14.714436433406142	-0.0017024434776625789	0.03286270178342743	-0.014702355971660933
14.844320749179111	0.003778459696230428	0.027377659339530375	-0.013968666095117706
14.97422149688669	0.008854712514131492	0.021987725257635066	-0.013968666095117706
15.104139075138152	0.01347993607029161	0.01670285679183696	-0.012279419015353659
15.234073108020164	0.017616919132000166	0.01152189724995047	-0.011310222097250787
15.364022582754403	0.021236269848198548	0.006437277089719979	-0.010243468804699486
15.493985981401597	0.024315111101726915	0.001438184435499079	-0.010243468804699486
15.623961397781768	0.02683588767444016	6.279697938690108	-0.010243468804699486
15.753946635882356	0.028785317675480367	6.274834046454649	-0.010243468804699486
15.883939289318203	0.030153497667591518	6.27002078751037	-0.010243468804699486
16.013936803309424	0.030933156848271526	6.265248363388401	-0.010243468804699486
16.14393652156582	0.031119047716522834	6.260508343316557	-0.0011821867835779018
16.273935720752732	0.030707456850365147	6.255793654503884	-0.0011821867835779018
16.403931635121367	0.029695818276165516	6.2510984863686065	-0.0011821867835779018
16.533921473597996	0.028082412399467457	6.246418150870669	0.005410705024789676
16.663902431258585	0.025866134878707068	6.241748926479711	0.007944853284891114
16.793875235901268	0.023207607713537325	6.239120641173294	0.010651059221065882
16.92384148602609	0.020245908180428613	6.239585689413047	0.010651059221065882
17.053801286601377	0.01701343039689904	6.242134205608161	0.013253059376524049
17.183756122025834	0.013587093901663506	6.246038280978096	0.01307980079224085
17.313708386199476	0.010064708273800283	6.2507829405644175	0.01307980079224085
17.44366084411632	0.006549791284871508	6.256011712019639	0.01307980079224085
17.57361615143449	0.003142329360664548	6.26148432613577	0.010041191644851016
17.703576503005856	-6.638123434956592e-05	6.267044307747331	0.010041191644851016
17.833543425870474	-0.0029961700460195938	6.2725944920389445	0.007125827646558433
17.963517697838206	-0.0055786776162379025	6.278078793050257	0.007125827646558433
18.093499358479974	-0.007756973656534775	0.0002835253692801132	0.007125827646558433
18.22348777826865	-0.00948457761754901	0.005568986907781912	0.0021519311875407487
18.35348175721424	-0.010724195152361542	0.010750785056951435	0.0003319896123469352
18.483479632130678	-0.011446372293217882	0.01583633166750345	-0.0015855418661317906
18.613479379130048	-0.01162819065199652	0.020836340690476605	-0.0015855418661317906
18.74347919861899	-0.011413397076128946	0.023730005063558025	-0.005760543102847832
18.87347828969615	-0.010928195057476041	0.02347453726361125	-0.007097571371948899
