x	y	theta	steer
0.065	1.0	0.0	0
0.19314322005	1.0	0.0	-0.29351111111111106
0.3214588216891361	1.0	0.0	-0.29351111111111106
0.44993033013867156	0.9996877865595114	6.279357308559403	-0.29351111111111106
0.5785379304263829	0.998458676524727	6.265584913877871	-0.29351111111111106
0.7072487955576807	0.9956457094185527	6.23775063907108	-0.2853098490543335
0.8360006144442973	0.9904333158532672	6.193180609768903	-0.2853098490543335
0.964685608452885	0.9819777714760458	6.132228348275424	-0.2510771149042109
1.0931562601975684	0.9696863452321184	6.060670308693227	-0.22176006968547446
1.2212319212752558	0.9531199009273844	5.98626741023857	-0.22176006968547446
1.3486586908068738	0.9316585108917109	5.912664193117238	-0.22176006968547446
1.47512251737211	0.9047666728778166	5.841917432133851	-0.22176006968547446
1.6002393027764776	0.8719259305745674	5.773611257893117	-0.22176006968547446
1.7235915102751977	0.832786075176312	5.707324883916889	-0.22176006968547446
1.8447419908220155	0.7871365209545448	5.642666472446372	-0.22176006968547446
1.9632457284809761	0.7348815226698902	5.579289988973421	0.05096577744370696
2.078659040905945	0.6760192260838004	5.516901239686141	0.05096577744370696
2.190785073724244	0.6110304463472646	5.460987902729602	0.05096577744370696
2.2995783226939865	0.5405345850616594	5.4169600803367235	0.05096577744370696
2.4051361648137197	0.4652203792312015	5.388409416801496	0.22271718654925332
2.5077467123253228	0.3858851609423106	5.377627746162133	0.22271718654925332
2.6079137333066393	0.3034403078217212	5.385997425523127	0.2854252265144831
2.706357035077051	0.21890434192435015	5.41428004500993	0.2854252265144831
2.8039898518118687	0.1333983807708018	5.46282620791362	0.2854252265144831
2.901770492870333	0.04803081189746625	5.529696653414519	0.2854252265144831
3.0004616588642894	-0.036309569169177054	5.608027361227577	0.31763836099670606
3.1008619591443467	-0.11863179856035114	5.693052439151694	0.31763836099670606
3.2037909498516237	-0.19778845778349902	5.783578540967112	0.294635581705638
3.3098952986340704	-0.27265386065787334	5.878550661762127	0.294635581705638
3.4195587347588123	-0.34221891684854994	5.975644748811152	0.294635581705638
3.5329788420456385	-0.4054908797873335	6.073366652818655	0.2358449110251349
3.6501513118960482	-0.4615260364419283	6.1708056732027785	0.2113922382317748
3.7708162418644884	-0.5096063729656898	6.265421029966789	0.2113922382317748
3.8944230621002043	-0.5495484493641662	0.06698079856059103	0.2113922382317748
4.020493611886158	-0.5808830696388305	0.14291814898444508	0.13180916306932175
4.148465313861133	-0.6032564234097227	0.21267300860853075	0.13180916306932175
4.277658500560578	-0.6169955838356973	0.27243817705755824	0.13180916306932175
4.407480243340088	-0.6222480878091212	0.3237570389891878	0.06114961127638992
4.537378973930884	-0.6192109013003819	0.36951046701658946	0.06114961127638992
4.666894317390857	-0.6086853377372637	0.4059974944763858	0.06114961127638992
4.795701256619393	-0.5915042227656968	0.43105382305100354	0.06114961127638992
4.923538462132439	-0.5681486051977824	0.4486986130595803	-0.016165568177714626
5.050234388161591	-0.5392122441560786	0.46177067521469845	-0.030789114321868778
5.175741542221883	-0.505467486834903	0.4701988832796291	-0.030789114321868778
5.300171051020104	-0.4679301194955428	0.4705251585257422	-0.030789114321868778
5.423578607264537	-0.4271469522438549	0.46579249670081274	-0.06981385383144166
5.546074810137553	-0.38369346505234186	0.45811331805594596	-0.06981385383144166
5.667858442585841	-0.3382716111416379	0.44688411881403806	-0.08907372824251267
5.78924771363337	-0.29179988138735763	0.4282629491681513	-0.08907372824251267
5.910411596462799	-0.2447381966632856	0.40502198337927625	-0.10290339367900429
6.031539609269878	-0.197579650930095	0.3790863625586425	-0.10290339367900429
6.152875604966288	-0.1509556432559397	0.34972640940110455	-0.10890726634504733
6.274633240687338	-0.10544117024077265	0.3167405596477677	-0.10890726634504733
6.396955382098736	-0.061463982951501094	0.28167050213532047	-0.10890726634504733
6.519963697023936	-0.019442333329749432	0.24555461566874856	-0.10596977114403427
6.643748448024177	0.020235534815604122	0.2090684878924725	-0.10240297126688702
6.768364373372087	0.05722176490826664	0.17263105093343675	-0.09798524057711477
6.893830776202969	0.09121281625065869	0.1364835903806274	-0.09798524057711477
7.020134240395653	0.1219494012808636	0.10074766805387851	-0.09798524057711477
7.147232746533157	0.14921406578165797	0.06546688681691093	-0.09798524057711477
7.275060309265074	0.17282749564482813	0.03063644842624659	-0.09798524057711477
7.403531558634587	0.19264426445313423	6.279408929266345	-0.09798524057711477
7.532545925700748	0.20854848493264197	6.245366854789167	-0.05488061879288575
7.6619912663437955	0.22044965374697426	6.211643538120235	-0.04456109356069674
7.791738283721897	0.22843994729441885	6.180220094113029	-0.04456109356069674
7.921654114817907	0.23291991787916316	6.155826288504652	-0.021717511613112164
8.05164403878563	0.23388536657330433	6.136231477154313	-0.021717511613112164
8.181619170711823	0.23160941508156627	6.121847388069257	-0.021717511613112164
8.311510496991373	0.22640408463469927	6.1125712515442086	-0.021717511613112164
8.441266042423216	0.21849853740614178	6.106585048362131	0.008663567119844326
8.570851540312077	0.2081671811092125	6.102608926252281	0.013619458791802227
8.700278251846331	0.19600261671471791	6.103485298352528	0.018402380685361992
8.829548431289329	0.1822700627161839	6.107444984973863	0.018402380685361992
8.958677873502898	0.167268434902958	6.1132503660872235	0.018402380685361992
9.087691173627322	0.15129620014882644	6.120056325790672	0.018402380685361992
9.216617124745532	0.1346316136873418	6.127303010601592	0.018402380685361992
9.345485053672064	0.11752262802434278	6.13463428110072	0.018402380685361992
9.474322317078936	0.10018307416077447	6.141836577784554	0.030907867949532968
9.603152857480394	0.08279272381732558	6.1487937637284515	0.032826288516863734
9.731996584453737	0.06549959200441859	6.155454292728898	0.032826288516863734
9.860890286446335	0.04858333994905049	6.163840472919853	0.03701084993561509
9.98986270768778	0.03227774394800123	6.175021227520745	0.03828380227348389
10.118923900594877	0.01669022567146752	6.188016176288455	0.038147162314128236
10.24808522873181	0.001955501558555732	6.202132493422941	0.03700102934547436
10.377356135034049	-0.01178451711652522	6.216891229039336	0.03700102934547436
10.506742281362952	-0.024392957632155567	6.231970096271635	0.03700102934547436
10.636244691511271	-0.0357448273674218	6.247159669174648	0.029707954286974373
10.765859591165741	-0.045730260003405986	6.262330317758737	0.02635239155606094
10.89556843176404	-0.0544164459353755	6.2753748765812105	0.022604096100685558
11.025354247866161	-0.06186461499949434	0.0020161375833271933	0.019410503753987986
11.155206706108268	-0.06804372145927712	0.0096197800115591	0.01727031371360984
11.285112412472795	-0.07297966964785166	0.015729017594399753	0.015736319809891628
11.415057812282113	-0.07672997228100314	0.02086839562997685	0.015736319809891628
11.5450306325153	-0.07936682245587756	0.025408552133599167	0.015736319809891628
11.67502041235877	-0.08096621449730865	0.029605665123843827	0.015736319809891628
11.805018526771518	-0.08160132880493227	0.03363208078420976	0.010730096081041304
11.935017967764535	-0.0813388517193121	0.03759975983367045	0.010730096081041304
12.0650130401753	-0.08023725669194204	0.041577974690135695	0.007319935815199895
12.194999055677453	-0.07834634625085941	0.04560647539692289	0.007319935815199895
12.32497206367532	-0.07570756111760027	0.049705136150509574	0.007319935815199895
12.45492863212234	-0.072354716889255	0.05388090676727799	0.00033749577394152615
12.584865678083219	-0.06831494145650778	0.058132729247120006	0.00033749577394152615
12.714780341955397	-0.06360966734335033	0.062454939923144825	0.00033749577394152615
12.844669897369725	-0.05825559018377941	0.06683956159788448	-0.00882668407747498
12.974531688899427	-0.05226554375661753	0.0712777954487591	-0.00882668407747498
13.104378568925961	-0.045960535680913454	0.07203776410590484	-0.00882668407747498
13.234210054583633	-0.03934578488101944	0.0702914379830366	-0.00882668407747498
13.36402878862266	-0.032484895602014355	0.06688943512156217	-0.019398552058031475
13.493839385034763	-0.025471327318212823	0.06243829441399741	-0.01991451083371076
13.623647395808643	-0.018409766067348517	0.0573617907642404	-0.02001338217135915
13.753458467675149	-0.01140451186124035	0.05194886394143313	-0.019851013520079813
13.883277735640194	-0.004552729560440141	0.046390550978704426	-0.019851013520079813
14.013109451187265	0.00205901629173686	0.04080804718492012	-0.019851013520079813
14.142956808393292	0.008356081763922933	0.03527372523014293	-0.018570767066864394
14.272821916751917	0.01427572522024708	0.029826647773284268	-0.018570767066864394
14.402705869860071	0.019766309109524968	0.02448383555779849	-0.018570767066864394
14.532608867393359	0.02478609932143246	0.01924830944888334	-0.018570767066864394
14.662530358734594	0.029301908973707276	0.014114715156246542	-0.01574938459197237
14.792469187117367	0.03328774103700017	0.009073163263729688	-0.01574938459197237
14.922423721764646	0.03672352006390693	0.004111772373207808	-0.01574938459197237
15.052391971861802	0.03959395988154755	6.282403593425783	-0.01574938459197237
15.182371680485764	0.04188758565465837	6.277566350125213	-0.011277104649447207
15.312360399227622	0.043595910880094076	6.272774808480394	-0.011277104649447207
15.44235554564415	0.044712759401218535	6.2680197811368785	-0.011277104649447207
15.572354446250865	0.045233717059909834	6.263293480814732	-0.006446816093625983
15.702354367836117	0.04515569541961949	6.258589454427392	-0.006446816093625983
15.832352539657046	0.04447658987566246	6.253902456091828	-0.002424964230574862
15.96234616872533	0.043195015568954054	6.2492282928819565	-0.00016211007393536017
16.09233244999846	0.041310106259144955	6.244563664900392	0.002271924480664348
16.222308572915562	0.038821363312230524	6.239906012643496	0.0048788465192135715
16.35227875676711	0.036040116966900404	6.238976564242294	0.007659929260468233
16.482242310841162	0.03296427730502864	6.240593815600855	0.007659929260468233
16.612200075184454	0.02965221269805538	6.243898901306668	0.009076232366955704
16.742154040487783	0.026193713687434034	6.248278333192571	0.008593241063074172
16.87210683162494	0.02269095838549966	6.253302606023889	0.008593241063074172
17.00206118896948	0.019246580830946543	6.258678141606845	0.006496308820910788
17.1320195497638	0.015956676712579877	6.264210209796529	0.005140602771377896
17.261983771027353	0.012907154061262678	6.2697747191847215	0.005140602771377896
17.39195498975291	0.010172277662778648	6.275297058547842	0.005140602771377896
17.521933592448857	0.007814590115853714	6.2807364591591375	0.0004872564116029173
17.65191925925615	0.005885641665839881	0.0028893111600652777	-0.0012155228726458904
17.78191105079072	0.0044271439138199985	0.008122258831093533	-0.0029995686183472542
17.911904842494724	0.0031606537512108893	0.009531471655810999	-0.0029995686183472542
18.04190059370153	0.002114149023161722	0.008306371492268712	-0.0029995686183472542
18.17189769092557	0.0012493228599164607	0.005316259963205417	-0.0029995686183472542
18.301895468664185	0.0004917034341789474	0.0011858396009498497	-0.0029995686183472542
18.431893350429156	-0.00024935760783573933	6.27954084752179	-0.0006664060696145324
18.561890771441096	-0.0010679394763434113	6.274314278299063	0.001677723333878777
18.691887031109893	-0.002053881605297129	6.268895012483009	0.001677723333878777
18.82188374678562	-0.002976943354003217	6.267137890299785	0.001677723333878777
