x	y	theta	steer
0.065	1.0	0.0	0
0.19314322005	1.0	0.0	0
0.3214588216891361	1.0	0.0	-0.29351111111111106
0.44993080118348544	1.0	0.0	-0.29351111111111106
0.5785441686698619	0.9996873280415116	6.279351150854282	-0.29351111111111106
0.7072804493062086	0.9984566699074708	6.265556787947331	-0.2917312871923413
0.836108015369177	0.995640585037598	6.2376777386073625	-0.2852968771801872
0.964965607103824	0.9904228705486147	6.193034868400223	-0.2721961088583044
1.0937463291953657	0.9819590003474151	6.1319801894205135	-0.2721961088583044
1.2223033544437447	0.9696553489663943	6.060295295629382	-0.22164530407879798
1.3504165258324499	0.9527649174019835	5.982059607004593	-0.22164530407879798
1.4778603275259314	0.9309758185041236	5.905789353796685	-0.14707148127063174
1.6043067861878766	0.9036934140230192	5.8332285175036604	-0.10709688849734267
1.7294785945314182	0.870824297439625	5.769439160294225	-0.10709688849734267
1.8531206797033708	0.8324242065164155	5.717392312012605	-0.10709688849734267
1.9749030969235082	0.7883393696118737	5.67352699719446	0.004774042235098016
2.0945560013860263	0.7386495330901682	5.635209056033205	0.004774042235098016
2.211938934782212	0.6837124793512913	5.602550162826875	0.06848049899238126
2.327186390713936	0.6243428449699956	5.580971360904932	0.09898375672542373
2.4405463579711557	0.5613726880272465	5.574127768752839	0.12590983127177233
2.552408824534233	0.49571705190820176	5.584400326941257	0.12590983127177233
2.6630696645775207	0.4280025370813224	5.607530183536516	0.1621532712639612
2.7728825010349105	0.3588741225384251	5.63876066115284	0.1621532712639612
2.8825239694021905	0.2894321226503722	5.680519768285543	0.1621532712639612
2.9924996010593445	0.22048308558891913	5.730431504304036	0.18038200401339258
3.1032497052034174	0.1527511801615966	5.785153621005351	0.18038200401339258
3.215186077250264	0.08696733387975776	5.842418271001747	0.18038200401339258
3.328652660988236	0.023830802681962974	5.900735855783486	0.18038200401339258
3.443904739360508	-0.03601137787873644	5.959169952981685	0.16138513976080382
3.561101918637634	-0.09197447472789368	6.017168950329453	0.16138513976080382
3.6803105245082364	-0.14353996346322803	6.074442117022167	0.14411366498046346
3.801511759206296	-0.19025568845774543	6.130869928723796	0.14411366498046346
3.924562902910584	-0.23188693541158575	6.184409618531316	0.14411366498046346
4.049282390044168	-0.2682438496990792	6.234059066717291	0.11154903525368323
4.1754844858960185	-0.2990935921482955	6.2809104617671005	0.11154903525368323
4.302880304905411	-0.32460271790108464	0.03888269561866506	0.08878883116459674
4.431247330538676	-0.34470177365054494	0.07613885503971611	0.08878883116459674
4.560330646759372	-0.35958585231265716	0.10876834387947192	0.08878883116459674
4.689896650774547	-0.36949114864142113	0.1366526143790546	0.05765536685345508
4.819746237547464	-0.37457919155982317	0.1614560020344826	0.05765536685345508
4.949697676556374	-0.3753780867349128	0.18063357167923091	0.05765536685345508
5.079615160318854	-0.37212124670198327	0.1961783187642188	0.030650698833017895
5.209387597673713	-0.3650977069725061	0.20949513819816976	0.022850946112957606
5.3389436912570885	-0.35477060340480154	0.21952010150009976	0.022850946112957606
5.468241675890386	-0.3415682270439048	0.22584780723339834	0.00748173064112538
5.597253060082347	-0.32578517160503667	0.22990552236504228	0.00748173064112538
5.725968362359005	-0.30772670223818677	0.23267721374845074	-0.005598170278597626
5.854392016447106	-0.28768362958803056	0.2348226674177042	-0.005598170278597626
5.98258904076843	-0.26622600104572514	0.23304622619990328	-0.01894625127290772
6.110583373955812	-0.24357959707196447	0.22879003993606925	-0.01894625127290772
6.238409862739284	-0.21999462910982098	0.2230607111123683	-0.01894625127290772
6.366108519216043	-0.19571871222995202	0.2165436945953348	-0.01894625127290772
6.493720015802096	-0.170981413589021	0.2096914303588052	-0.01894625127290772
6.621282571296352	-0.14598652764292022	0.20279027926800397	-0.01894625127290772
6.748830098349976	-0.12090932760285797	0.19601063349330614	-0.01894625127290772
6.876391349460984	-0.09589687271099522	0.18944387351188643	-0.01894625127290772
7.003989771694206	-0.0710700613344281	0.18312919037999656	-0.05525902505001487
7.131643812026868	-0.046526559008071365	0.17707270947901893	-0.059765825548963675
7.259397212210094	-0.022502588091397956	0.1692282679918293	-0.059765825548963675
7.387284171917579	0.000803534318247168	0.1585171473058066	-0.059765825548963675
7.515314483241472	0.023312069587003457	0.1459187073122171	-0.059765825548963675
7.64350195582888	0.04491051323492472	0.1321300316249241	-0.07108549431943971
7.771859885391983	0.06547439373278308	0.11763711697047012	-0.0713541832302196
7.90044455166449	0.08457203400179554	0.09904745883709491	-0.0713541832302196
8.029254326442068	0.10208943164585932	0.07775880324735104	-0.0713541832302196
8.158289236521714	0.11786509888749801	0.05476638726937655	-0.0641989916247784
8.287544677687334	0.1317200235169978	0.030764374131786513	-0.0587065309041547
8.417008001095747	0.14347647697846933	0.00622506462795396	-0.0587065309041547
8.546633923079652	0.15327985761786359	6.268368249030957	-0.04485262862979214
8.676401810838973	0.1609817020358333	6.249840120065485	-0.038465884519469036
8.806280463404521	0.1665141254969693	6.233085061681999	-0.03256914385299379
8.936234013157975	0.16986108508274408	6.217552783808473	-0.03256914385299379
9.066225546204773	0.1710381156824958	6.202840826386431	-0.03256914385299379
9.196219078655501	0.1700783688135349	6.188659755400504	-0.014828590632453807
9.32618045138187	0.1670232753837351	6.17480533979721	-0.014828590632453807
9.456084390399552	0.16207772139008642	6.163169359680023	-0.014828590632453807
9.585912158427922	0.15542314728955625	6.154711819841676	-0.014828590632453807
9.715645778525849	0.14713049651640842	6.14836327470439	-0.014828590632453807
9.84527291431964	0.13731042734776894	6.143359328713576	-0.014828590632453807
9.97478647014842	0.1260893991379275	6.139164428239148	0.02125858135465041
10.104183509685706	0.11359466508273451	6.135412177977778	0.026398952661204702
10.233496333455964	0.10025544016895088	6.135582419406297	0.026398952661204702
10.362730783400268	0.08617595184168657	6.138339834055483	0.03555854575139799
10.491899667152747	0.07150602294904518	6.14273305519561	0.03847703425799431
10.621038485684394	0.0565723024345892	6.1501307600856086	0.04084863255990124
10.750181932057545	0.04167833862702114	6.1611353584124195	0.04197488258821847
10.87935118907964	0.027009829816351777	6.174440166380148	0.04197488258821847
11.00856945969368	0.012779746242813897	6.189129578982423	0.04197488258821847
11.137857965977132	-0.0007969743266618926	6.204577097165894	0.04197488258821847
11.267233378114978	-0.013518312836947214	6.220366602233763	0.03484249541550732
11.396706464900978	-0.02520301886376672	6.236232428209443	0.03162475685193455
11.526281686163836	-0.03569385217743182	6.252014386843476	0.02806915358464675
11.65594634502325	-0.045018869924492264	6.265591775144132	0.02806915358464675
11.785687699966655	-0.05320758827174455	6.275869993905955	0.0209593842366471
11.915498839461728	-0.06020370929307608	0.0006626124718467352	0.0209593842366471
12.045368524998809	-0.06601329361330507	0.007076124490778187	0.0209593842366471
12.175284397060338	-0.07067848653682157	0.012458709520292927	0.01626025341407191
12.305234711351963	-0.07425975142268444	0.017190278284931606	0.01626025341407191
12.435209108992222	-0.07682425903384651	0.02153585979079266	0.01626025341407191
12.565198817586786	-0.07843865107198379	0.02567581774106955	0.01626025341407191
12.695196554962887	-0.07916484433428392	0.02972911175755452	0.011718408939393155
12.825196304173087	-0.07905789237773515	0.033770954004710536	0.010147024485034486
12.955193055291302	-0.07816519231826635	0.037846021713086514	0.00833614448408446
13.0851825625116	-0.07652653051901699	0.041978198096338515	0.00833614448408446
13.215161137106023	-0.07417461537999909	0.04617763985318998	0.00833614448408446
13.345125481448225	-0.07113585926061416	0.050445814707676194	0.00833614448408446
13.475072561699822	-0.06743125396188918	0.054779019394441	0.00833614448408446
13.604999513591785	-0.06307724269519621	0.0591707769429726	-0.004325553998089618
13.73490357494476	-0.05808653208964974	0.06361342051382508	-0.004325553998089618
13.864795123161453	-0.052780192657711916	0.06437591355933187	-0.004325553998089618
13.994673633742266	-0.047163461170856305	0.06263084329906585	-0.004325553998089618
14.124541260614956	-0.041300008833905465	0.05922927200704445	-0.013731272717698277
14.254401901197426	-0.035283388758016024	0.05477805263494018	-0.013731272717698277
14.384260305980785	-0.029218390680451237	0.04970117733459478	-0.013731272717698277
14.514121323990022	-0.023209416652258584	0.044287732196441006	-0.013731272717698277
14.643989347671479	-0.01735372435804394	0.038728849457353824	-0.013731272717698277
14.77386796732599	-0.011737957757976042	0.03314578346479829	-0.013731272717698277
14.903759807110038	-0.006436825117995264	0.027610940889811142	-0.011147762576383023
15.03366649758049	-0.001513117380741094	0.022163401512273473	-0.011147762576383023
15.16358873820253	0.002981492499225204	0.016820192199792864	-0.009313690142140748
15.293526410115703	0.0070052472228478236	0.011584333110164997	-0.009313690142140748
15.42347870939301	0.01052494703790588	0.006450465300120757	-0.009313690142140748
15.553444280821962	0.013514590492497564	0.0014086927025006276	-0.005929113755614518
15.683421340368325	0.01595410445193225	6.279632433720072	-0.004586882912152228
15.81340778051436	0.017828210303835593	6.274738810439319	-0.004586882912152228
15.9434012567309	0.019125444777858505	6.269901461307579	-0.004586882912152228
16.073399255823542	0.019837335932222117	6.265109839112762	0.00023490399533904657
16.203399148212537	0.01995772437169005	6.260354751299171	0.0021355475632695103
16.333398983620302	0.01979386568454669	6.259351591650728	0.004193718880033497
16.463398140283722	0.01934071247341226	6.260913875299904	0.004193718880033497
16.59339629142055	0.018654562652638717	6.2641785848916856	0.004193718880033497
16.723393614152346	0.01782379797566096	6.268528839757913	0.004193718880033497
16.853390663676077	0.01694966952341615	6.273532410698854	0.004193718880033497
16.98338810041668	0.016134225480796422	6.27889356665352	-0.0007250677775336
17.11338641528053	0.015473209943675313	0.0012305937408152445	-0.0007250677775336
17.243384341818963	0.014740685215683271	0.003065542117617336	-0.0007250677775336
17.373382291961175	0.014012784796980773	0.002317547167924151	-0.005676210905843984
17.503380292820456	0.013293607667924433	6.282988188767916	-0.005133246801987452
17.63337813087101	0.012544918893209642	6.27930070079949	-0.0038150368912431933
17.7633754227235	0.01170630117877209	6.274864961294017	-0.001971810380867545
17.89337159001027	0.010708393989577512	6.269978528235145	0.0002272414825706496
18.02336579342398	0.009481218255227707	6.264845052627308	0.002671471925176411
18.15336014585301	0.00827071467899746	6.263323025707609	0.005291759832770833
18.28335407792198	0.007016072932800444	6.264318839651805	0.006317153800946933
18.413347654174174	0.005724761973777771	6.267026867734371	0.00624698140808819
18.54334133579241	0.004443624215649994	6.270863091119446	0.005433741025309937
18.673335755885372	0.0032393852292010783	6.275411639394159	0.005433741025309937
18.803331486365877	0.0021859546535479175	6.280382418538137	0.0024716912457243547
18.933328837391027	0.00135653461149119	0.0023927171169194723	0.0005924164600073857
19.06332771961343	0.0008190581466738365	0.007682965478392123	-0.0014515915704218715
