x	y	theta	steer
0.065	1.0	0.0	0
0.19314322005	1.0	0.0	0
0.3214588216891361	1.0	0.0	-0.29351111111111106
0.44993080118348544	1.0	0.0	-0.29351111111111106
0.5785441686698619	0.9996873280415116	6.279351150854282	-0.29351111111111106
0.7072804493062086	0.9984566699074708	6.265556787947331	-0.29351111111111106
0.836108015369177	0.995640585037598	6.2376777386073625	-0.2852968771801872
0.964965607103824	0.9904228705486147	6.193034868400223	-0.2852968771801872
1.0937463291953657	0.9819590003474151	6.1319801894205135	-0.2510098840246523
1.2223033544437447	0.9696553489663943	6.060295295629382	-0.2510098840246523
1.3504564771393741	0.9530715507574904	5.985749369810276	-0.2510098840246523
1.4779235422133612	0.9314283147570055	5.909975524757762	-0.14878596113875903
1.604348647606786	0.9040549130738814	5.833991756548585	-0.10907273271042989
1.7293531098481938	0.870561244468796	5.7604111784800205	-0.06758521481729834
1.8526635771830904	0.831109623533542	5.69630981358347	-0.025359375092179122
1.9740668876036538	0.7859881363663828	5.6464025814650185	0.01444180825544952
2.0934666145874283	0.7356868772040623	5.613712735578382	0.04965795681621851
2.2108608564839933	0.6807726170274024	5.598053340397701	0.04965795681621851
2.3262976348220685	0.6217695025733136	5.595693654723062	0.10182644000410605
2.4399660504944363	0.5593569899741986	5.603569606776662	0.12018340063289613
2.5523407652521657	0.4945809303378609	5.6235345855242755	0.13503464739563376
2.663814474050532	0.42821220530284887	5.652774191703104	0.1452572259896122
2.774939739836098	0.3612134809445962	5.691328639573957	0.15186396027066748
2.886132901750301	0.29428423332874803	5.735506719015963	0.15455459205081118
2.99781660723102	0.2281377068736371	5.782782740084451	0.15474893410870214
3.110375204674074	0.16345546819933693	5.831479945114129	0.1533496183755961
3.224128119369104	0.10086442059755577	5.88052859340645	0.1533496183755961
3.3393174184009635	0.04092687955024844	5.92928406741627	0.14767150102268564
3.4561055668888603	-0.015861940938442728	5.977392309571134	0.14379842526869202
3.5745798013543966	-0.0690722947162046	6.024691942857834	0.13928611965630233
3.6947602578283623	-0.1183359863188369	6.071144365852483	0.13928611965630233
3.816609753932062	-0.16334125895595117	6.116784846256187	0.1280874852638171
3.9400438060952587	-0.20382715722403352	6.161689127181823	0.1212030506689909
4.064897028624879	-0.23972744063961895	6.20409148838734	0.11331625357179365
4.190991834777449	-0.27101910749721464	6.242819945646015	0.11331625357179365
4.31817153747213	-0.2975930320694752	6.278987056541117	0.11331625357179365
4.446258735039212	-0.3194143145994846	0.03022779565161863	0.11331625357179365
4.575069673509075	-0.3364951709257868	0.06350770544876404	0.08044335955066942
4.7044223672991	-0.3488757782221272	0.09606518828260277	0.07080474571637509
4.834132302797315	-0.3567722215356104	0.12616403074729357	0.06010461707784287
4.964036519564418	-0.3603856326204591	0.15295125317931374	0.04917079388615471
5.093994726303213	-0.3601225943190259	0.17384567923357744	0.04917079388615471
5.22389530399245	-0.356117321403052	0.1908371032518749	0.04917079388615471
5.353642427690829	-0.34857964287011217	0.20534656352076255	0.04917079388615471
5.483159615261102	-0.3377498987056615	0.21836855080199463	0.04917079388615471
5.612388546760501	-0.3238703837728907	0.23058242703692458	0.002992954080339105
5.74128579557885	-0.3071685212463383	0.2424384391169452	-0.006458200346293544
5.869843661248654	-0.28800748057215275	0.2521908894840218	-0.016580189492517383
5.998116151679168	-0.2670080956461102	0.25523508072337575	-0.02649784664578769
6.126107455861423	-0.2443465850679424	0.25385261523260005	-0.03400165537772659
6.253843162970989	-0.22027628263622617	0.24966952515305668	-0.040044407053575315
6.381394267429599	-0.19523630396901526	0.24178864709956138	-0.040044407053575315
6.508836510499876	-0.16964106572401472	0.2299288776085572	-0.04914745718919458
6.6362262819522755	-0.14377984091606594	0.2156089763372971	-0.04914745718919458
6.763624865545187	-0.11795674677405292	0.199878951543701	-0.05272446445278069
6.891091025537631	-0.09246464122483895	0.18344541291352018	-0.05272446445278069
7.018676180265803	-0.06757076111337708	0.16676756773308446	-0.05272446445278069
7.146421798735847	-0.043510071517242586	0.1501296978798003	-0.053589431980941876
7.27435850095546	-0.020483498202863416	0.13369509003257612	-0.05332641221766363
7.402506327865949	0.0013409002204240704	0.11754555522770206	-0.05284935732137729
7.53087571743333	0.02182512919359489	0.10170991033079915	-0.05284935732137729
7.659468829173663	0.0408576852679132	0.0861841238526402	-0.05284935732137729
7.788280966889268	0.05834976279191894	0.0709452575947151	-0.04993618152860233
7.917301941541455	0.07423157518179696	0.05596086060200883	-0.04993618152860233
8.046517286977526	0.08844898006863319	0.04119508450786104	-0.04642549367218163
8.175909291044576	0.1009605005348802	0.02661247887882616	-0.04642549367218163
8.305457836803829	0.11173477173481092	0.012180180234992267	-0.04134961605804448
8.435141067317993	0.12074840315170005	6.281054325211285	-0.04134961605804448
8.56493589679469	0.12798422419863614	6.2668392221705185	-0.04134961605804448
8.6948183940015	0.13342986950966734	6.252699156118368	-0.04134961605804448
8.824764063284846	0.13707665627683058	6.2386168683955745	-0.025741113147973924
8.954748045954988	0.13891870664413453	6.2245784436995	-0.025741113147973924
9.084745633742472	0.13911359292749542	6.212605541083018	-0.014971535513072634
9.214736886941484	0.13779863683948645	6.203744145919626	-0.009757466877359025
9.34470496979683	0.13500536273855188	6.196979462247158	-0.005470135744302368
9.474635559347766	0.13081045167422595	6.1915798176922	-0.001672014027767079
9.604517693341043	0.12531187555292944	6.187027408690477	-0.001672014027767079
9.734343648424781	0.11861353308580246	6.182963669991112	-0.001672014027767079
9.864108364546405	0.1108158833699088	6.179146808881263	-0.001672014027767079
9.993808740709136	0.10201070934334408	6.175419260567117	-0.001672014027767079
10.123442976273608	0.09227864185408388	6.17168309622635	0.017504521477318936
10.253010032151474	0.0816884595002784	6.167881706541153	0.02200590003992825
10.382536150950589	0.07060795570163655	6.167709520687379	0.026787861394865786
10.512023455060813	0.05908173729141378	6.169975977145146	0.026787861394865786
10.641479196650632	0.047205329663972145	6.173824089059576	0.03250114801105187
10.77091358652403	0.03509761074924501	6.178648509691962	0.03429281020426425
10.900353040817055	0.023043815982540246	6.186063721077738	0.03429281020426425
11.02982123804382	0.01130258722441135	6.196843109479193	0.03599578094116509
11.15932980283793	1.5440338542542335e-05	6.209795928843365	0.03599578094116509
11.288891405336066	-0.010645262933689089	6.224082682988932	0.032306365057905614
11.4185167172214	-0.02050045219873787	6.23912467517653	0.032306365057905614
11.548212529134519	-0.029378893329121344	6.254533888830496	0.032306365057905614
11.677980816899773	-0.03712518720100409	6.2700593923935735	0.032306365057905614
11.80781852249445	-0.043603426868995265	0.002361641736397857	0.016675557695363264
11.937717819022517	-0.04869808086813478	0.017723708794315986	0.016675557695363264
12.067662497877972	-0.05247446792742578	0.030884761875163952	0.016675557695363264
12.197637602837931	-0.054994026377662195	0.04077634552922086	0.016675557695363264
12.327631298169658	-0.0562270098226229	0.048410631810138965	-0.0018111079384169203
12.457630878195632	-0.05620138517164529	0.054528410348228744	-0.0018111079384169203
12.587627283059048	-0.05528865075163684	0.055939676353823145	-0.0018111079384169203
12.717615481203863	-0.053561310562020584	0.05420102778446611	-0.008400541528762774
12.847592973033388	-0.0511558230939148	0.050430375299567266	-0.008400541528762774
12.977560014776662	-0.048236914535816494	0.04541530232523126	-0.008400541528762774
13.10751894757139	-0.044974869471432075	0.03969825476697853	-0.005836773388409277
13.237473248004546	-0.04153191235123538	0.0336425489793242	-0.00427719438810453
13.367426660191452	-0.03805479939927483	0.027482799698512066	-0.00427719438810453
13.497382560509124	-0.034671524333282716	0.021362904749762303	-0.0009302541591399804
13.627343576921191	-0.031490641028566406	0.01536424375316022	-0.0009302541591399804
13.757311421777816	-0.02860215681193593	0.009526291708217317	0.002478488654837662
13.887286876686527	-0.026079282515083103	0.0038614358442688947	0.004200942129974405
14.01726445948016	-0.023668961178465488	0.0020886084139690947	0.004200942129974405
14.147244924521338	-0.021419240148541185	0.0030140964911936127	0.006027558429947032
14.27722771488755	-0.01930747719050289	0.005761846186218864	0.0049597787599645355
14.407211722815125	-0.01727125253893316	0.009699413708208315	0.003130210268684312
14.537195647059319	-0.015229060328963148	0.014378564068153568	0.003130210268684312
14.667178079532867	-0.013093659069011176	0.019488363917999123	0.003130210268684312
14.797157467976321	-0.010780249351176812	0.024818682097419775	0.003130210268684312
14.927132052124486	-0.008211088342339787	0.030232189058800034	0.003130210268684312
15.057099820631452	-0.005317717476887565	0.03564317669207241	-0.010900179440162718
15.1870585021403	-0.002041648636778233	0.04100176594096899	-0.014131693426413504
15.317014094525204	0.0013543592048724893	0.042559123191081454	-0.017452464258398016
15.446965359038051	0.004912179393344888	0.04148547821396013	-0.019134882778659143
15.576912852163607	0.00860548840823117	0.03863870650207762	-0.019706452440050606
15.70685831531196	0.012369892813659212	0.03463737716395692	-0.01953714098033509
15.83680411178767	0.01612304330172961	0.029919284114481186	-0.01953714098033509
15.966752723455997	0.019777567051114008	0.024787617330043726	-0.0179047558401188
16.096706356891495	0.023248949917712584	0.019446853594095603	-0.0179047558401188
16.226666682537836	0.026459948532125473	0.014030263030254404	-0.0179047558401188
16.356634699966378	0.029342684798424487	0.008620694973186037	-0.013943346030393631
16.486610704106067	0.03183924894198085	0.0032660604499468297	-0.012407808658363386
16.616594321470803	0.03390139196653968	6.281175997885927	-0.010783110881333992
16.746584587609007	0.03548970679423506	6.275988841262294	-0.009065803319290631
16.876580042984106	0.03657256500481549	6.27088927009087	-0.007248259212997129
17.00657883134084	0.03712498120726967	6.265871106775105	-0.005320918928487954
17.136578790730415	0.03712751031912979	6.260925342901919	-0.003273729186045212
17.266577532122394	0.0365652370858145	6.256041914789732	-0.0010970165339092735
17.39657250385165	0.035426886410684595	6.251210810271886	-0.0010970165339092735
17.52656104223701	0.03370406320078243	6.246422711546	0.003679120378289484
17.656540409857705	0.03139061824537016	6.241669324473783	0.003679120378289484
17.786514413096953	0.028793712411319256	6.240666688599724	0.009064608079611717
17.91648233700803	0.025908216817008296	6.242228774054504	0.009064608079611717
18.046444908533363	0.022790328171072686	6.245492877086176	0.009064608079611717
18.1764039573983	0.019528316442683713	6.249842327244698	0.009905506011713795
18.30636193099641	0.016223320395047824	6.2548450312247645	0.00894802477544526
18.436321396159162	0.012977284515060453	6.260205341440928	0.00894802477544526
18.566284632033472	0.00988586461515025	6.26572689851925	0.006308335718652856
18.696253358178044	0.007034703427719404	6.2712843469354915	0.006308335718652856
18.826228595936907	0.0044979195747979605	6.276802108416551	0.006308335718652856
18.956210636869756	0.0023379883652055993	6.282238684809816	0.006308335718652856
19.086199084627637	0.0006064429120448343	0.004389923979248093	-0.0002694592875056801
