x	y	theta	steer
0.065	1.0	0.0	0
0.19314322005	1.0	0.0	-0.29351111111111106
0.3214588216891361	1.0	0.0	-0.29351111111111106
0.44993033013867156	0.9996877865595114	6.279357308559403	-0.29351111111111106
0.5785379304263829	0.998458676524727	6.265584913877871	-0.2917341328047768
0.7072487955576807	0.9956457094185527	6.23775063907108	-0.2917341328047768
0.8360006144442973	0.9904333158532672	6.193180609768903	-0.2722297085652114
0.9646739200187826	0.9818186016393355	6.130218149421249	-0.2722297085652114
1.0931158174926332	0.9692302777746495	6.055611750379595	-0.2722297085652114
1.221107772398053	0.9520293658353485	5.975479920220274	-0.2722297085652114
1.3483307150495225	0.9294016760742255	5.892343466627443	-0.14395877194478648
1.474373327476923	0.9006108040948507	5.807856022194986	-0.14395877194478648
1.5988681806580272	0.8654901332193666	5.728769978967683	-0.14395877194478648
1.7214906954057254	0.8241201144729556	5.661286439997178	-0.14395877194478648
1.841815140142431	0.7763351522665624	5.603740909970976	-0.14395877194478648
1.959431095752074	0.7221097897877643	5.553074206227846	0.07127372680800509
2.073998326145404	0.6616140267550977	5.507033118697999	0.07127372680800509
2.185485442900871	0.59553095238957	5.469719841311236	0.07127372680800509
2.2940481383009996	0.5246756926371994	5.4455874234391475	0.18334677756938464
2.3999976347743206	0.449908526146247	5.437584798066368	0.18334677756938464
2.5038273679918315	0.3721713224511145	5.447587430372633	0.18334677756938464
2.606217839926269	0.2925013767268538	5.47672097886731	0.258649473519223
2.707725842391227	0.2116697473759013	5.519860044574652	0.26920695752698953
2.80925000441674	0.13082264794491433	5.577408749735273	0.27393924620862337
2.911713025013992	0.05113694361709248	5.6492660951187155	0.27233199160067334
3.0157622046735715	-0.026494629577764654	5.729909582159134	0.26408423729012026
3.1220192260512096	-0.10110125261189956	5.815534730769508	0.26408423729012026
3.2309968629458496	-0.17169784188639572	5.90359376875425	0.26408423729012026
3.343050515123476	-0.23732460741374684	5.9924419528828645	0.21751672566485042
3.458356682878438	-0.2970736316046506	6.081070662279831	0.1976620166677204
3.576719211355297	-0.3505397818976679	6.163160373202726	0.17617875268862593
3.69796572093379	-0.39712070001508715	6.238559216318445	0.15573029847231004
3.8217256150658923	-0.4365675395800971	0.02213871386464117	0.13620671817644875
3.947600387819896	-0.4686733042769764	0.0807832668856775	0.13620671817644875
4.075136965073518	-0.4934048238683649	0.1321459233114691	0.10199464265225026
4.203892570075321	-0.510758559442833	0.17861872148862273	0.08664035291125638
4.333401309842835	-0.521171556435184	0.2182031588281991	0.07127344317751876
4.463280041478414	-0.5250057401845852	0.2512632771958601	0.07127344317751876
4.593200885352445	-0.522694049597139	0.278442511552074	0.07127344317751876
4.722895655758833	-0.5145992903194543	0.3019253789262646	0.030827554849096047
4.852148044413669	-0.5011292161405903	0.32323277152268703	0.030827554849096047
4.9808580394921975	-0.4831593206416948	0.3376435340336551	0.004778378163943122
5.10895217305015	-0.4612010978686743	0.3459617068280586	-0.006840564205317114
5.236387647881529	-0.43567693289601456	0.3504796985021707	-0.01694776077840104
5.3632307826347425	-0.4073396553548259	0.34906619937267386	-0.01694776077840104
5.489520750091674	-0.3766174813727816	0.3439762313543153	-0.0341234972009972
5.615326681364385	-0.34395843591893643	0.3367703789553969	-0.04089985336933324
5.740776656403176	-0.3099467342723048	0.3264678345876416	-0.04089985336933324
5.866000655314755	-0.27510449815431576	0.31269866430861076	-0.04089985336933324
5.99109736627245	-0.23980125658264087	0.29689559029781715	-0.0569245716813332
6.116167589652124	-0.20439844108271682	0.2800300329209277	-0.0569245716813332
6.2413051318514166	-0.16922917526273515	0.2627395829179738	-0.06329467560908657
6.3665913097511275	-0.13458854656507915	0.24542460396671198	-0.06329467560908657
6.49209236089451	-0.10073049478379154	0.22832038958756315	-0.06854903846126516
6.617858953347907	-0.06786868669869947	0.2115502520761475	-0.07095633740898849
6.744002688514453	-0.03648192763363983	0.1914411826082079	-0.07095633740898849
6.870538919595115	-0.006713577677285035	0.16917664550519615	-0.07357732021441554
6.99748414076452	0.02126242414214006	0.1455906782545145	-0.07357732021441554
7.124848861884741	0.047264810319070816	0.12125792906978894	-0.07357732021441554
7.252633823101869	0.07111920562470038	0.09656345211778958	-0.07357732021441554
7.3808285013046575	0.09266615330029501	0.07175604720281346	-0.06338794624997088
7.509411110796888	0.11176499716320852	0.04698844880885094	-0.05879034133272081
7.638309447244141	0.1286041285331869	0.026070143113228313	-0.05349171622961362
7.767494710336778	0.14308192516291435	0.00786325413566314	-0.05349171622961362
7.896925441091954	0.155174664229726	6.274708729288971	-0.05349171622961362
8.026555527452055	0.1649060448110809	6.259619022028828	-0.05349171622961362
8.15633883924848	0.17232613893066304	6.245336248267521	-0.0380263066323987
8.2862315838245	0.17749727738095564	6.2315480773707295	-0.0380263066323987
8.416193236895795	0.18048495518997637	6.218039315830093	-0.0380263066323987
8.5461866531795	0.18135229726638918	6.204665769144346	-0.0380263066323987
8.676177754399774	0.1801569870584666	6.191334267836741	-0.018659378994228582
8.806135039951858	0.17694984744783163	6.1779876184664815	-0.018659378994228582
8.936035941045857	0.17193566141103608	6.16662612744539	-0.018659378994228582
9.06586380669778	0.16529022652634884	6.158288646235831	-0.018659378994228582
9.19560207418674	0.15707598594748937	6.151962020290658	0.0064733185479481465
9.325239281307097	0.1473939946796942	6.146921233359365	0.0064733185479481465
9.454794761849966	0.1366716670826225	6.146380756111654	0.01673075441770734
9.584270604388955	0.1250248806704695	6.148811993840125	0.02011583082067994
9.713676452075104	0.11262259784816155	6.15312520798899	0.022463899110796506
9.843026881653746	0.09965344781941476	6.158559220006164	0.02420514250634621
9.97233885203607	0.0863049688867103	6.1645952065933916	0.02420514250634621
10.10162961799361	0.07275160742896841	6.170890282619097	0.02687980097240043
10.230915257794626	0.05914860806633593	6.1772270454897225	0.02687980097240043
10.360209791210073	0.0456297336918914	6.1834757875858	0.0292891170057648
10.489524777283554	0.0323073628269331	6.189566613070321	0.0292891170057648
10.618869256160172	0.01927396315501181	6.195469188092628	0.0292891170057648
10.748249909426187	0.0066042686558038695	6.201178291822059	0.03296136102220943
10.87767133879299	-0.0056422771726081815	6.2067037133478955	0.034166529063499554
11.007150707109984	-0.01725839647199481	6.2140960864335	0.035328367419761454
11.13669984105408	-0.028068962773217205	6.224431497747917	0.03548321204496818
11.266318300971909	-0.03801375323438425	6.2367238925535355	0.03548321204496818
11.396007056247864	-0.046995012463822934	6.250267657257345	0.03161287109535696
11.525765851999365	-0.054899446530560614	6.2645677485096884	0.028286102330702778
11.65558361529239	-0.06177324678565115	6.277252190173042	0.028286102330702778
11.785450424331387	-0.06764758948605558	0.0038552796610051843	0.028286102330702778
11.915361000062743	-0.07245800848225419	0.01161127231323345	0.028286102330702778
12.045306841258606	-0.07619731732322588	0.01797400019162075	0.028286102330702778
12.175278567479442	-0.0788923010382231	0.02340910667745911	0.014451406120195045
12.305267208621466	-0.08058783380762971	0.02825003366263961	0.014451406120195045
12.435264785842538	-0.08133639199336444	0.03273090535268708	0.014451406120195045
12.565264467963585	-0.08119141908606493	0.0370123191929798	0.014451406120195045
12.695260502937428	-0.08020338408193288	0.04120128395419972	0.007535293231942884
12.825248050540594	-0.07841767646730016	0.045366417388674654	0.005401032427856992
12.955222988879186	-0.07587371449328145	0.04954936753675926	0.005401032427856992
13.085181732116096	-0.07260482160474457	0.05377327118118431	0.005401032427856992
13.215121075536388	-0.0686385597908389	0.058048921044839934	-0.0023642569974701585
13.345038072184293	-0.06399730765052297	0.06237918590829404	-0.005410825022732635
13.47494225734821	-0.05901035156129805	0.06303893417313879	-0.008679555372600314
13.604833219861625	-0.05368970125991497	0.061203561508434715	-0.008679555372600314
13.7347131006749	-0.048104532650006346	0.05772494459434867	-0.011187364141425592
13.864585733457327	-0.04235279743083138	0.0532095323743729	-0.011187364141425592
13.994455786679755	-0.03654274596159941	0.04808022833233067	-0.01099536682077011
14.124328022441787	-0.030781463360018423	0.04262470233194126	-0.010442419890207338
14.254206746989695	-0.025168258048745066	0.037032573078784874	-0.009731534100917708
14.384095467953617	-0.019791319114211413	0.03142362499161533	-0.008917044122868024
14.51399673214964	-0.014726501842352371	0.0258689178012934	-0.008917044122868024
14.64391209944119	-0.010037435255716473	0.020406345531029133	-0.007066830292120771
14.773842206148469	-0.005776394002680572	0.01505192208365918	-0.007066830292120771
14.903786878280794	-0.0019855587400368305	0.009807822757830776	-0.0049314237407566824
15.033745264838215	0.0013015800227510594	0.004667997966628377	-0.0037352738808830417
15.16371597127134	0.004058827163799506	6.282807304051531	-0.0024371921034519422
15.293697181350922	0.0062659857774703025	6.27784279925254	-0.0024371921034519422
15.423686761738066	0.00790770285743923	6.272947185493358	0.0005129917089290295
15.553682347604884	0.008972474850254455	6.268108531606413	0.002186505055699992
15.683679878102557	0.009763461006097322	6.267039276909792	0.0040042806629677595
15.813678825691245	0.010272536704408157	6.26855005233295	0.0040042806629677595
15.94367848118502	0.010553711875550245	6.271775188573929	0.0040042806629677595
16.073678380633897	0.010693695250846968	6.27609546459721	0.0019258631858448338
16.203678329066484	0.010792535720970931	6.281076648055627	-1.72970140256349e-05
16.333678223951946	0.010951433396773224	0.0032360273759452	-0.0022393568275265734
16.46367812048189	0.011109719950810198	0.0068848477445974995	-0.004639082370595712
16.59367808027172	0.011197869950616439	0.0074397431542339715	-0.006291995213917039
16.72367805410163	0.011261574958332861	0.005843154435756451	-0.006562170170653896
16.853678043143784	0.011289086583190116	0.002788132763989889	-0.005877943505130383
16.983678027001424	0.011235895845966917	6.281961431834355	-0.004540994264687616
17.113677877411856	0.011041317502692629	6.277348733187169	-0.00275902875541793
17.243677250841834	0.0106392474634396	6.2723832448967105	-0.00275902875541793
17.3736754937675	0.009964804450865455	6.267233126756731	0.0016330506100271911
17.503671584374874	0.008958128115038273	6.262008819536438	0.004098432474457094
17.6336670742888	0.007877903371722627	6.260502919174118	0.006693991489836328
17.763661502322762	0.006676744489292208	6.2615762441944245	0.0076740471873472296
17.89365496847414	0.005375055124796165	6.264392484014368	0.007554051436610065
18.02364801570421	0.004031467323234621	6.268347666117035	0.007554051436610065
18.15364142711474	0.0027230449644344125	6.273013555799534	0.005349238318355266
18.283635973816434	0.001532502538890378	6.278092946652311	0.005349238318355266
18.41363218529719	0.000540367687285782	0.00019955340559629775	0.005349238318355266
18.54363018659476	-0.00017945040062540026	0.005572535902089018	0.005349238318355266
18.67362961371698	-0.0005618105467033527	0.010944449995155797	0.005349238318355266
18.803629597354853	-0.0005510144076379787	0.01626740556522626	-0.004653578880070416
18.933628795730762	-0.00010057551365532584	0.021516687135027926	-0.0070002675724928935
