x	y	theta	steer
0.065	1.0	0.0	0
0.19314322005	1.0	0.0	-0.29351111111111106
0.3214588216891361	1.0	0.0	-0.29351111111111106
0.44993033013867156	0.9996877865595114	6.279357308559403	-0.29351111111111106
0.5785379304263829	0.998458676524727	6.265584913877871	-0.2917341328047768
0.7072487955576807	0.9956457094185527	6.23775063907108	-0.2853098490543335
0.8360006144442973	0.9904333158532672	6.193180609768903	-0.2722297085652114
0.964685608452885	0.9819777714760458	6.132228348275424	-0.2722297085652114
1.0931562601975684	0.9696863452321184	6.060670308693227	-0.2722297085652114
1.221192018961028	0.9528135103473725	5.982581067573058	-0.18664777995142395
1.3484858539246667	0.9305866687385579	5.9007612833334875	-0.18664777995142395
1.4747435394010198	0.9027445022140015	5.822788390971375	-0.10476897689466584
1.5996430589392614	0.8690901510027483	5.753427002306097	-0.10476897689466584
1.72280155621084	0.8293415098944924	5.692392242303482	-0.021852692850905096
1.8439671204737205	0.7837286541912378	5.642649332034284	0.016685545303087097
1.9628745075603604	0.7323892701454191	5.6026885669924065	0.05197357055601902
2.079550944573388	0.6760578013036199	5.5766983244730355	0.05197357055601902
2.194173981077474	0.6155675069484305	5.567417042812275	0.05197357055601902
2.306862237472783	0.5514697222947165	5.570823126709926	0.13445300493045095
2.4178149730151377	0.4843469162725761	5.582308687369657	0.15176683171991762
2.5275827320986934	0.4152445056133365	5.604384000979314	0.16641141158991424
2.6367633388934313	0.3451671507128199	5.638430543676851	0.17697471218441876
2.745851917374822	0.2749009841606198	5.681976215409545	0.18255363662002824
2.8553708204468133	0.2052666115495499	5.732951129204244	0.18255363662002824
2.9657627810451648	0.13698771281431865	5.788240726112989	0.18255363662002824
3.077433181421663	0.07078639882947432	5.845743493063938	0.17770018509421992
3.1907143154929036	0.007349077182934961	5.90408921983854	0.17770018509421992
3.3058474076394075	-0.05269161640924504	5.962425461080705	0.16474633491041332
3.422977619435803	-0.1087654972305154	6.020258265790602	0.16474633491041332
3.5421577496502765	-0.16036795045789992	6.077335317439026	0.14768189403153778
3.663357119388282	-0.2070596549980379	6.133561674526573	0.13769866414195386
3.7864231847109053	-0.24861744629936006	6.186909612860012	0.12664860740745754
3.911166621822819	-0.28486164567264083	6.236385282703872	0.11535896192403022
4.037321643718848	-0.3158705954762584	6.279364858562533	0.1042145489101575
4.16468290797123	-0.34151687642303674	0.03466752125537306	0.0943935456233661
4.293015424541853	-0.36179604930697074	0.07013341476892952	0.08497604383742262
4.4220630757037185	-0.3769392461540046	0.10160500832922134	0.07531375568543194
4.551596547287827	-0.3871988317331699	0.12877753637083805	0.07531375568543194
4.681423127096161	-0.3927394831749758	0.15317688506270655	0.05695070264339253
4.811368936152224	-0.393772889748586	0.1758782368839429	0.04783472548694973
4.9412902901365285	-0.39083664467228574	0.19390071895520833	0.04783472548694973
5.071076922988556	-0.3841485004783094	0.20891986663713835	0.04783472548694973
5.200640406605501	-0.37396836911578474	0.2221134098135656	0.04783472548694973
5.329913675479227	-0.36056359837184515	0.2342901422632367	0.011974740978998297
5.45884758186123	-0.34418814009722637	0.24598971698296662	0.011974740978998297
5.587430954056007	-0.32523075492858894	0.2555266305284185	0.011974740978998297
5.715665798748235	-0.30402807429213147	0.26205760334825184	-0.017041017620716102
5.843548030431356	-0.28078001010959897	0.2667084495483148	-0.017041017620716102
5.97114573477565	-0.25600690692760075	0.26653892264463436	-0.017041017620716102
6.098482071935191	-0.22991394935416637	0.26325836980490247	-0.017041017620716102
6.225595620617644	-0.20274799569136637	0.25807132806258665	-0.017041017620716102
6.3525330807218605	-0.1747634444340187	0.2518075952682899	-0.0541114138774311
6.479343430875763	-0.14620202338799793	0.24502307569095844	-0.059567477852685326
6.606109583257174	-0.1174392551631145	0.2360443719124933	-0.0649635744595687
6.7329050659854035	-0.08880124748598013	0.22403734971542494	-0.06945274253635335
6.859840426055066	-0.0607853475280349	0.20641205059843007	-0.07257202435038163
6.986956999865533	-0.03359961342393258	0.18513561684687538	-0.07257202435038163
7.114303229035961	-0.007507411711745092	0.16159893303271944	-0.07257202435038163
7.241923592561459	0.017212136717818023	0.1367640844857082	-0.0689431148301224
7.369851808789611	0.04028829696744233	0.11127892923478087	-0.0689431148301224
7.498107332404851	0.06147236461651497	0.08556485706814013	-0.0689431148301224
7.626694256456843	0.08054434158033191	0.05988306441721873	-0.05571417644642049
7.755601828475767	0.09731512553775354	0.03438388408992565	-0.05000517635171025
7.8847711993952085	0.11193562713357971	0.012865940475891185	-0.05000517635171025
8.014178777436381	0.12427446216711154	6.277361551197593	-0.03851879501974837
8.143787589391115	0.13428531571072724	6.260639165650001	-0.03391192983973256
8.273555178399521	0.1419749719863472	6.245250827379442	-0.02948791764273636
8.403438307983002	0.14738103533021263	6.230738240124033	-0.02948791764273636
8.53339203856678	0.15071809582024015	6.2188083658310624	-0.02948791764273636
8.663380635324149	0.15218480359133438	6.210289116173362	-0.02948791764273636
8.793377450529967	0.1518724575817455	6.204018523583179	-0.012574167769311771
8.923360174963213	0.14991258821435072	6.19916889835299	-0.009721757847281685
9.053311874281848	0.146451508151789	6.195162661669237	-0.009721757847281685
9.183220628324296	0.14163444082758406	6.191606601978564	-0.009721757847281685
9.313078576336851	0.13559632021493473	6.188241252232918	-0.009721757847281685
9.442880836376792	0.12845710728194898	6.184902455938749	-0.009721757847281685
9.572624531500068	0.12032005721986706	6.181492600912411	-0.009721757847281685
9.702308010860076	0.11127182380828554	6.177959407003343	0.009456635129006062
9.831930275726412	0.10138362778364576	6.174280532227766	0.009456635129006062
9.961515780343483	0.09102359645650095	6.174175743343007	0.009456635129006062
10.09106643545454	0.08023522135848067	6.176472938571358	0.0212768403718411
10.220588896276997	0.06911224152291374	6.180328341503481	0.023431969848075697
10.350092564477661	0.05777148005165103	6.185145874811513	0.023431969848075697
10.479587937254852	0.046335476368404675	6.1905136459008645	0.02620692279009007
10.609085362906105	0.03492198458702459	6.196154639003585	0.027200266252892128
10.738594207643928	0.023638169886240786	6.20188897440134	0.028066711677278082
10.868122383247282	0.012577926582339236	6.2076054260711295	0.028853999936558645
10.997676156054995	0.0018211926776381905	6.213240235312612	0.028853999936558645
11.127260152809768	-0.00856552654202147	6.218761590337803	0.03025994335427221
11.2568774887049	-0.018527964447404323	6.224158444076959	0.030877692280809405
11.386529959199251	-0.028022586716151522	6.229432607061322	0.030877692280809405
11.516218254130163	-0.037015002202992066	6.234593277295886	0.030877692280809405
11.64594216741644	-0.04547843045114205	6.239653356056704	0.030877692280809405
11.775700787111266	-0.053392303543178685	6.244627050951407	0.030877692280809405
11.90549265872411	-0.060741038840638674	6.249528389659304	0.03264714927979979
12.035315920076792	-0.06751299271169843	6.254370364036743	0.03264714927979979
12.165175756468674	-0.0735384320447006	6.2611972335611625	0.03264714927979979
12.2950739327355	-0.07867169007948895	6.271073537535118	0.03126496277721368
12.425005486296776	-0.0828756190955853	6.282999416588405	0.03126496277721368
12.554961955158628	-0.0862312971585361	0.011037010577481719	0.024406756475710566
12.684936770500435	-0.08877819962570904	0.019993759368952986	0.024406756475710566
12.814925860162468	-0.09044400849443114	0.027341086602944997	0.01725480222308152
12.944923404348796	-0.09120489030404794	0.03356924910606149	0.01725480222308152
13.07492311703272	-0.09106692832901303	0.039038769416495984	0.01725480222308152
13.204918969105341	-0.09005328843819402	0.04401049631298662	0.009541686437555236
13.33490551754941	-0.08819558654914388	0.04866977079007689	0.007055286238639461
13.464877991089299	-0.0855282846426298	0.05314554673502908	0.007055286238639461
13.594832243955825	-0.08208522880970402	0.05752529695179198	0.0017052891476768506
13.72476465098488	-0.07789766884119788	0.06186646919649409	0.0017052891476768506
13.854671987408894	-0.07299327486979258	0.06620516762596726	0.0017052891476768506
13.984551316232068	-0.06739580169523127	0.07056263812614852	0.0017052891476768506
14.11439989326587	-0.06112515365085852	0.07495004100477674	0.0017052891476768506
14.244215092528687	-0.054197679048881856	0.07937190699247977	-0.015057092954802167
14.37399435088334	-0.04662657911457137	0.08382859510989453	-0.015057092954802167
14.503754414293367	-0.038733411573060865	0.08459482019415522	-0.02322151709715493
14.633494886412945	-0.030524312267818654	0.08284721260150314	-0.02322151709715493
14.76321922613448	-0.02206380536117792	0.07943961133608375	-0.027515641325058474
14.89293324346792	-0.013446206478257644	0.07498072243185776	-0.028498640857334515
15.022643832978941	-0.004776962326953813	0.06989572887278117	-0.029064901725669754
15.152357982195214	0.0038389717051041314	0.06447444188833176	-0.02937066804473632
15.282082077364882	0.012303877974759472	0.058908398822657415	-0.02951272846605876
15.411821485764388	0.02053073266851317	0.05331904538105317	-0.02954672928366915
15.541580363804778	0.0284445143796638	0.04777884208221685	-0.02954672928366915
15.671361629512104	0.03598217357602432	0.0423268386833555	-0.02938421256132177
15.801167041285437	0.04309182280592075	0.03697998504466412	-0.02938421256132177
15.930997335373378	0.04973152563415306	0.0317412019874552	-0.02892898354056637
16.06085238713603	0.055867931360863154	0.02660502478165155	-0.02892898354056637
16.19073137287865	0.06147490993417884	0.021561454823245996	-0.02892898354056637
16.320632918520747	0.06653227723396407	0.01659850949749779	-0.027536358963750746
16.450555228309934	0.07102465745481956	0.01170384271604333	-0.026835733063791636
16.58049619145681	0.07494050085031441	0.006865715287923018	-0.026835733063791636
16.71045346742362	0.07827125725573479	0.002073521267191208	-0.025018615255895188
16.840424552137577	0.0810106953434203	6.280503327286366	-0.025018615255895188
16.97040682804899	0.08315435210695216	6.2757766888050295	-0.02259675285447609
17.100397601048854	0.0846990949005777	6.271072425869645	-0.02114495856426457
17.230394127042	0.0856427782575264	6.266385265979244	-0.02114495856426457
17.36039363060306	0.08598397882480388	6.2617109956929715	-0.02114495856426457
17.49039331772615	0.08572179350460075	6.2570462995230605	-0.02114495856426457
17.620390384275407	0.08485568790306806	6.252388606284936	-0.013652165087059517
17.750382021382865	0.08338538421605984	6.2477359499959615	-0.013652165087059517
17.88036541873532	0.08131077958689545	6.243086848498401	-0.013652165087059517
18.010337766444252	0.07863188767850349	6.2384402004849	-0.013652165087059517
18.140296255998138	0.07534879768081959	6.233795200101586	-0.013652165087059517
18.270238080647278	0.07146164622119908	6.229151267480899	-0.013652165087059517
18.400160435460016	0.06697059867454878	6.224507993185001	0.0028145993604622443
18.53006051720799	0.06187583720329296	6.219865094457835	0.0061770506126063085
18.659948801974434	0.056488922882145194	6.218945566985836	0.00971653325916099
18.789824567218627	0.05080798925685533	6.220569259247822	0.011702489762026893
18.919689829059205	0.044891472880876984	6.223878326532482	0.011702489762026893
19.049548380304383	0.03882913106300506	6.228260039851787	0.01293474059488459
