x	y	theta	steer
0.065	0.1	0.0	0
0.19314322005	0.1	0.0	-0.02935111111111111
0.3214588216891361	0.1	0.0	-0.02935111111111111
0.4499307094476648	0.09984656157609041	6.2813567651224815	-0.02935111111111111
0.5785441831496551	0.0995398645441907	6.278282471906892	-0.028501029112480977
0.7072857834966274	0.09905090912525791	6.274388042860901	-0.027057501299490125
0.8361430683910956	0.09833567991777546	6.269976915361842	-0.025199400156546852
0.9651044301125603	0.0973444201018352	6.265259929056413	-0.02304740003690736
1.09415894988926	0.09602740591802077	6.260379361465825	-0.020679722429527182
1.2232962917558237	0.09433828448932181	6.255427863950199	-0.018144412908537237
1.3525066321919066	0.09223576743576442	6.250462997837119	-0.0154686576949852
1.4817806174706218	0.08968425671290488	6.2455181378094515	-0.01266568052441383
1.6111093392446094	0.08665381167490863	6.240610473962942	-0.009739726735620865
1.740484319913692	0.08311973986641617	6.235746758449807	-0.006689576642534166
1.8698975014696324	0.0790620007013561	6.230927339300342	-0.0035109554826940814
1.9993412338304921	0.0744645438718467	6.226148920955645	-0.00019813434755385054
2.128808260634069	0.06931465693439282	6.221406397531941	0.00325504863131925
2.2582917018721007	0.06360236401956887	6.216694024770802	0.006854572647770957
2.387799701867417	0.05763009487898339	6.215713986530011	0.01060589473583048
2.517328019356233	0.05139014343966262	6.217284363831263	0.01279030025661732
2.646875732218937	0.04493600299215834	6.220544297698593	0.01393041055702029
2.7764440917408058	0.0383532379395074	6.2248785709010495	0.014389532273711265
2.90603551649402	0.03174035752196337	6.229856780110511	0.014413410943230153
3.035652771071193	0.02519681208616852	6.235185259867835	0.014162625247609414
3.165298369803918	0.018815946330558893	6.240669767622073	0.013737276517917712
3.2949742036053125	0.012681311193702083	6.246187006138665	0.013195485568431767
3.424681355745715	0.00686517688486688	6.251663242755899	0.012567012932807152
3.554420058288441	0.001428425364926485	6.2570585185419585	0.011863108534817242
3.684189740918855	-0.0035787482727248302	6.262355184193023	0.011083495428194038
3.813989131610055	-0.008115711515110414	6.2675497305274686	0.010221211195465362
3.9438163789493417	-0.012150099971840503	6.272647087918936	0.009265874718296306
4.073669175965257	-0.015656511050934015	6.277656746314857	0.008205816009334833
4.203544873527004	-0.018615278561286964	6.2825901952241585	0.007029401018060993
4.333440577455466	-0.02101137672834117	0.0042739960588767095	0.005725799051075825
4.463353227558533	-0.022833473099944906	0.00909004527967874	0.004285374531321441
4.593279659279037	-0.024073131648039956	0.013863211055417766	0.0026998341249572693
4.723216649955922	-0.024724156721103886	0.018602335242301697	0.0009622218972749995
4.853160952230615	-0.02478206293952762	0.023314885058217032	-0.00093317341884758
4.983109317180313	-0.024243653895501063	0.028007022363490112	-0.002990955899291445
5.113060852038468	-0.023418192883748364	0.028962527747191193	-0.005214776586970846
5.243014475264406	-0.022302206598845745	0.02736496559344146	-0.005877735735973412
5.372969758289715	-0.020953030832225716	0.024075018323052613	-0.0055019367462157244
5.5029269779979	-0.019459687249528592	0.019707592902621807	-0.0044494807063173575
5.632886885996045	-0.017923777408181622	0.014693214543650463	-0.002964961808777102
5.762850369479797	-0.01644749608554877	0.009326146785556735	-0.0012081047673675575
5.892818137555059	-0.015126596793421118	0.0038015521142953	0.0007215312929439581
6.022790498243372	-0.014046714393063337	6.281429084797833	0.0027661275546463915
6.152765028155906	-0.012970311610427332	6.279635159937339	0.004896072922908387
6.282742049024209	-0.011961686275055863	6.280466093585993	0.005369942064754014
6.412721299556109	-0.011013831462726408	6.283082541045585	0.004708066934160225
6.542702251244335	-0.010078571556811555	0.00369057546144812	0.0032779264134784546
6.6726842443789005	-0.009086892078547269	0.008227334341468127	0.0013333353795590413
6.80266647643703	-0.007962193834766792	0.013205082464221737	-0.0009551172755492048
6.9326479289655625	-0.006628535693989993	0.01841798767304627	-0.0034767652802569176
7.062630786845892	-0.005327004047614242	0.020007554576127046	-0.006163277162937174
7.1926142987557995	-0.00399296989814856	0.019067861881164758	-0.007245124484474224
7.322598416917251	-0.0026309013010800634	0.016405626585883005	-0.007222962959442
7.452583522223161	-0.0012853153402155914	0.012606213698349583	-0.00645065176744108
7.582570183892894	-2.1159415668169784e-05	0.008086881042372145	-0.005172841350625209
7.7125589201654075	0.0010889990952922788	0.003139032192281765	-0.0035541736366518166
7.842549995177239	0.0019729580131392544	6.281146551271054	-0.001701644574313483
7.972543279829877	0.002563518905528014	6.275870021448696	0.00031851116938427153
8.102538182739613	0.0028008643324145778	6.270577899139232	0.002468255182137215
8.232533663160991	0.0029450959377813174	6.269042756316338	0.004728536710954893
8.362529632932976	0.0029509676499966725	6.270111292021296	0.005362075345698974
8.49252593495301	0.0028412916664364175	6.272937305901758	0.004889911279886435
8.622522524926184	0.00267710606608842	6.276910075615502	0.003677902688578723
8.752519455875941	0.0025377188245411914	6.281596905682289	0.0019770149072607804
8.882516738339966	0.0025078432755238213	0.0035124582474373497	-4.5528439335131705e-05
9.012514174593111	0.0026697277413428766	0.00882468997086287	-0.002282498150696609
9.142511648386046	0.002942900798507068	0.012354395225245755	-0.004668811593564264
9.27250927373481	0.0032388474025343656	0.012747507386568897	-0.0063030024877611165
9.402506961024253	0.0035860022219924943	0.010974962178066431	-0.006562940285230598
9.53250475585301	0.003957520712661359	0.00774739784132556	-0.005884441511553978
9.662502799917199	0.0042960614045887465	0.003576306613424761	-0.0045724973245594045
9.792501216573053	0.004530279879052841	6.282008264409315	-0.0028354703479328783
9.922499959615022	0.004585388834566144	6.276922237102574	-0.0008114747839537591
10.052498679719292	0.004389553061954401	6.271671335879735	0.0014115584141959668
10.182496639109504	0.0038774285707377293	6.266364480878013	0.003780835167785695
10.312494424703546	0.0033034443183885985	6.264792128162785	0.006267580758321341
10.442491749837146	0.0026169538016322736	6.265812806485573	0.0071283060027463475
10.572488624744198	0.0018358986656623446	6.2685879473882675	0.0068804279541740555
10.702485345144137	0.0010170790742097724	6.2725114918510085	0.005887874280211956
10.83248236859521	0.00023621641251207466	6.27715335880781	0.004400801086169303
10.96248011637471	-0.0004249430725580906	6.282214759048956	0.0025863336614481017
11.0924787777918	-0.000886558110240764	0.0043080837846544515	0.0005520255036976857
11.222478166585999	-0.0010751967956296937	0.009671408647004692	-0.0016364910315891997
11.352477645458073	-0.000926042552418481	0.015036416908884888	-0.003942416640839554
11.48247703346325	-0.00069526183193195	0.01663135819137075	-0.006348229372588535
11.61247616069501	-0.00033453105083741837	0.015611002095154269	-0.00711816556025067
11.742474976462454	0.00013569429061817685	0.012823156648579324	-0.0067748152753274605
11.872473637898258	0.0006561551627643034	0.008880139150604434	-0.005685436215825299
12.002472439913065	0.0011488664795935644	0.004216133861226639	-0.004102218094257021
12.132471643365918	0.0015300825927923494	6.282317810232254	-0.0021934282782465325
12.262471290779612	0.001718250112410874	6.277018364610149	-6.716625255663321e-05
12.392471066613517	0.0016385067380597575	6.271636430665869	0.0022107737489103167
12.522470622427146	0.0013806907791020485	6.268116921275187	0.0046036654331882
12.65247000571552	0.0010432159104465154	6.267780010767509	0.006228859949501803
12.782469112555974	0.0006071979189060024	6.269631898928544	0.006476243039353348
12.912468012456193	0.00010819828594507008	6.272947068743715	0.0057888945368166
13.042466938293208	-0.00038878952370607824	6.277204794512596	0.0044757977095715214
13.172466159601697	-0.0008058983106438364	6.282038480381497	0.0027471344219447266
13.302465806507916	-0.0010629096161420821	0.004010544912148072	0.0007414497202382785
13.432465712693537	-0.0010835542001150637	0.009322820133928284	-0.001453733457543844
13.562465313074997	-0.0007989298061714625	0.0146811670355933	-0.003786491747072609
13.692464782125493	-0.000460659287506389	0.016295797921338968	-0.006229133698428039
13.822463935827775	-1.5908369972290675e-05	0.015309211130301644	-0.007039288012181849
13.952462760807277	0.0005190586914660737	0.012561113526287441	-0.006735466070287604
14.082461450736076	0.0010887094358921247	0.008658694717689078	-0.005682589075104237
14.212460320254525	0.0016182666336060287	0.0040330882945244974	-0.004131682977247093
14.342459633375514	0.002026676656791462	6.282169328529397	-0.0022506135775063945
14.472459424853643	0.002234598253364283	6.27689991172803	-0.0001475505836745606
14.602459366428121	0.0021689542543856595	6.27154336403946	0.0021113706879065074
14.732458696136824	0.001765174870075911	6.266183254867578	0.004488947326672237
14.862457738022876	0.0012795930833033665	6.2645918023102	0.006967338460478575
14.992456231073868	0.0006639932880494702	6.265614592848449	0.007810525622844712
15.122454168014107	-6.110174003172425e-05	6.268404098192306	0.0075409104217763895
15.252451825166371	-0.0008363941258728938	6.272348216506578	0.00652560764974071
15.382449652957167	-0.0015838790920883908	6.277012926537106	0.005016700756181502
15.512448078637544	-0.002219803533032978	6.282096987249053	0.0031823795630472654
15.642447306442593	-0.0026626138280914525	0.0042113694219325	0.0011306879895115116
15.772447169116084	-0.002837451194139928	0.009593424649384837	-0.0010726188343532174
15.902447048612437	-0.002678333451629458	0.014974566877569137	-0.0033908416395869384
16.032446798105042	-0.0024404924066007768	0.016583043709206012	-0.005806682016650618
16.162446251075995	-0.0020748645610388972	0.015573807100164061	-0.006584649739120142
16.2924453626636	-0.001601329681466562	0.012794929897290322	-0.006247632336583302
16.422444294609473	-0.0010787052000952053	0.008859025993147585	-0.005163173082051233
16.552443344720785	-0.000584642313106711	0.004200575780283953	-0.0035837218820751657
16.682442775550065	-0.00020263789986395915	6.282306525264773	-0.0016777744819438272
16.812442630726316	-1.406284904855858e-05	6.277010317713185	0.00044637485950398646
16.942442595662722	-9.364780479837237e-05	6.271630800068551	0.0027227696315237494
17.072442536178443	-0.00019563489651696058	6.269974661130356	0.005114551001991263
17.20244238683684	-0.0003783565703898773	6.270910618679408	0.0058736281164564865
17.332442126024706	-0.0006304671952913513	6.273606120642254	0.005515188047716497
17.462441835049713	-0.0009006879220073071	6.277458285809635	0.004402445653178354
17.592441648272118	-0.0011178245233572353	6.282038340967265	0.002785778521229993
17.722441616258408	-0.0012037772907554424	0.0038623180707953566	0.0008330649089557473
17.85244155422095	-0.0010815960430818352	0.009097960601668478	-0.0013471278924955493
17.98244092640405	-0.0006801079994626469	0.014426483709805704	-0.0036880683311829106
18.112440190747524	-0.0002478871515564023	0.01604059972920121	-0.006151880640039288
18.24243913568983	0.0002712012679697381	0.015070646040374168	-0.006989383740826164
18.37243776941165	0.0008641216089505493	0.012348090436455128	-0.006714703682205273
18.50243631054967	0.001478313784288987	0.008474720373904279	-0.005690081909734841
18.632435086720616	0.002041626036729769	0.003878282356676697	-0.0041650384113484555
18.762434361865278	0.0024752533938133727	6.282041824988637	-0.0023067183720801225
18.892434161756867	0.0027017340093708872	6.276796808988332	-0.000223077281297773
19.02243414506732	0.0026495298178721093	6.271461348401184	0.002019653852652243
19.152433536400462	0.0022553093251679803	6.266118991928035	0.004384001810738957
19.282432632217073	0.0017763861927826774	6.2645421681537785	0.0068517713821535
19.41243117318108	0.0011653097217877804	6.265576792849281	0.007686563589889532
19.542429150870806	0.00044319100094031483	6.268375715573554	0.007410410557925334
19.672426841196067	-0.0003302259319058635	6.272327215531156	0.006390088047962021
19.802424695355736	-0.0010766027414040745	6.276997629037266	0.004877380796606836
19.932423142072977	-0.0017119406424580847	6.282086035171013	0.003040223296980107
20.062422387198783	-0.0021545079429719275	0.004203681704737401	0.0009864464230985304
20.192422264872814	-0.002329319074632742	0.009588153664987947	-0.0012183689116329814
20.3224221580691	-0.0021703034274106266	0.01497105750928194	-0.003537663423844265
20.452421920186232	-0.001932632677523471	0.016580796155339236	-0.005954249415658984
20.58242138488242	-0.0015672036405777183	0.015572445776626845	-0.006732722689441132
20.712420507333736	-0.0010938710129326406	0.012794176606797039	-0.006396037112039568
20.842419449232764	-0.0005714373570737355	0.008858677836294203	-0.00531178619100108
20.972418508329216	-7.754594477317104e-05	0.004200487283546026	-0.0037324573484540185
21.10241794715623	0.0003043096856161101	6.282306594145892	-0.001826573938289996
21.232417809374212	0.0004927590867139811	6.27701047370858	0.00029754978435416
21.362417780470437	0.0004130703318892602	6.271630996286401	0.0025739430824503035
21.492417726566654	0.0003109991040572609	6.269974867694505	0.004965737210493178
21.62241758225308	0.00012821035276616802	6.270910817464353	0.005724834464711992
21.7524173259852	-0.0001239529449232213	6.273606301617034	0.005366417508863733
21.88241703914004	-0.0003942144460458941	6.277458444347848	0.00425369841559642
22.01241685613336	-0.0006113821759978896	6.282038475907641	0.002637053129461772
22.14241682757185	-0.0006973583801660943	0.0038624303495775718	0.0006843590431189555
22.27241676869631	-0.0005751945265763789	0.009098052312527355	-0.0014958169022354906
22.402416143772115	-0.00017371919550287988	0.014426557477417317	-0.0038367431801949138
22.53241541073441	0.000258492510909045	0.016040658196405752	-0.006300543857964218
22.66241435805062	0.0007775744849048704	0.015070691762200748	-0.00713803753936172
22.792412993922937	0.0013704903871993913	0.012348125733273816	-0.006863349977540994
22.922411537007527	0.001984679595507143	0.008474747269490346	-0.0058387223124833415
23.052410314939916	0.002547989942292013	0.003878302566337218	-0.004313674244457801
23.182409591678876	0.002981616144510826	6.282041839935128	-0.00245535070226813
23.31240939301437	0.003208096123854765	6.276796819831624	-0.0003717069553221006
23.44240937763356	0.003155891643583302	6.271461356073583	0.0018710261718656606
23.57240877015385	0.0027616710850940835	6.266118997169708	0.004235375610748806
23.702407867047842	0.00228274802428626	6.264542171592571	0.006703146271639569
23.832406408989648	0.001671671698685119	6.265576794973679	0.007537939252115007
23.962404387566757	0.0009495531546031923	6.2683757167638845	0.007261786756159959
24.0924020786972	0.00017613640278543328	6.27232721608155	0.006241464605552973
24.222399933587294	-0.0005702402375453486	6.2769976291722935	0.004728757582806862
24.352398380966996	-0.0012055779897199449	6.282086035059046	0.0028916002163995964
24.482397626693523	-0.0016481451648444304	0.004203681469058711	0.0008378234075636699
24.61239750491225	-0.0018229561944192055	0.009588153393161308	-0.001366991909505021
24.742397398602442	-0.0016639404661795687	0.014971057261047072	-0.0036862864357649545
24.87239716116761	-0.0014262696544150902	0.016580795949806854	-0.006102872461745885
25.002396626270198	-0.0010608405704958831	0.015572445621249455	-0.0068813457724901965
25.132395749090175	-0.0005875079071373844	0.01279417649936435	-0.006544660230957435
25.262394691323653	-6.507422384954435e-05	0.00885867776817288	-0.005460409341509686
25.39239375072352	0.00042881720988789294	0.004200487242794708	-0.0038810805243208067
25.522393189825802	0.0008106728573753185	6.282306594119707	-0.0019751971324988454
25.652393052293522	0.0009991222723319292	6.277010473684959	0.00014892657871348153
25.782393023616326	0.0009194335287771475	6.2716309962551025	0.002425319871613403
25.912392969918084	0.0008173623105799907	6.269974867656373	0.004817113999728535
26.04239282579098	0.0006345735671452595	6.270910817420553	0.005576211254128041
26.172392569692256	0.0003824102755108055	6.273606301569959	0.005217794298469049
26.302392283000547	0.00011214877872046369	6.277458444300903	0.004105075204866293
26.432392100133065	-0.00010501894845071645	6.282038475864683	0.0024884299174029664
26.562392071697825	-0.00019099515113957257	0.0038624303143647894	0.0005357358284889831
26.692392012936832	-6.883129706295792e-05	0.00909805228832285	-0.0016444401207098608
26.822391388116554	0.0003326440338497947	0.014426557466762283	-0.003985366403658773
26.95239065517312	0.0007648557395157506	0.016040658196963223	-0.0064491670873462765
27.08238960257485	0.001283937712628061	0.015070691771741664	-0.007286660773461319
27.212388238524746	0.0018768536141989802	0.012348125749275154	-0.007011973215336384
27.342386781679714	0.0024910428221189725	0.008474747289220073	-0.005987345552910655
27.472385559675946	0.003054353168927382	0.0038783025870857677	-0.004462297486412788
27.60238483647282	0.0034879793715760065	6.282041839954429	-0.00260397394467858
27.73238463786085	0.003714459351690695	6.276796819847404	-0.0005203301972213988
27.8623846225277	0.003662254872424453	6.271461356084238	0.0017224029312902028
27.99238401509123	0.0032680343150453513	6.26611899717411	0.004086752372134579
28.122383112024448	0.002789111255437097	6.264542171591727	0.00655452303545279
28.252381654001844	0.0021780349309483563	6.265576794968608	0.007389316017885596
28.382379632611237	0.001455916387778233	6.268375716755749	0.007113163523465376
28.512377323770966	0.0006824996366099964	6.272327216071599	0.006092841373939836
28.642375178687622	-6.387700335271941e-05	6.276997629161754	0.004580134351802359
28.77237362609142	-0.0006992147554257962	6.282086035049027	0.002742976985545928
28.902372871839802	-0.0011417819306754162	0.00420368146048433	0.0006892001764510572
29.03237275007836	-0.0013165929605455965	0.009588153386744538	-0.0015156151412167702
29.16237264378654	-0.001157577232706169	0.014971057257287075	-0.0038349096683399234
29.292372406368024	-0.0009199064214297716	0.016580795948301495	-0.006251495695373076
29.42237187148542	-0.0005544773380037827	0.015572445621582536	-0.007029969006966773
29.55237099431883	-8.114467508838613e-05	0.012794176501053092	-0.00669328346609865
29.68236993656449	0.0004412890078390728	0.008858677770693898	-0.005609032577117699
29.812368995975408	0.0009351804413125922	0.0042004872456308795	-0.004029703760189466
29.94236843508772	0.001317036088631173	6.28230659412239	-0.0021238203684287933
30.072368297564534	0.0015054855035012916	6.277010473687094	3.033429008363986e-07
30.20236826889559	0.0014257967599219906	6.271630996256386	0.002276696636067022
30.332368001864875	0.0011678994444041376	6.268113274772119	0.004668490764564353
30.46236754560836	0.0008302693433956034	6.267777645783176	0.006292922004334322
30.592366797745495	0.0003940630587130899	6.269630435482406	0.006539786446624685
30.7223658292786	-0.00010513194627038486	6.2729462264972735	0.005852096293001183
30.85236487449458	-0.0006023065792184399	6.277204370113406	0.004538783316095973
30.982364204201915	-0.0010195850630921495	6.2820383289005965	0.002809990898966251
31.112363949642354	-0.001276745018379929	0.004010565018817417	0.0008042358483703278
31.24236394545992	-0.0012975162412526137	0.009322942503655304	-0.0013909792433344124
31.372363627400635	-0.0010129972867642648	0.014681345452168254	-0.0037237453859545414
31.50236317045275	-0.0006748130242470211	0.016295999368870353	-0.0061663810652172225
31.632362391319802	-0.00023013133238885023	0.015309414684679248	-0.006976520201595662
31.762361277238778	0.0003047811720445352	0.012561306319965984	-0.006672678868770518
31.892360022431415	0.0008743896889409999	0.008658869284448081	-0.005619781122922895
